X,Signal
0.0,0.0
0.001953125,0.09566718652298681
0.00390625,0.19111884693177225
0.005859375,0.2861399785668206
0.0078125,0.38051662434998934
0.009765625,0.47403639225885863
0.01171875,0.5664889708311488
0.013671875,0.6576666393921073
0.015625,0.747364771711565
0.017578125,0.8353823318145657
0.01953125,0.9215223606900113
0.021484375,1.0055924526655955
0.0234375,1.0874052202443432
0.025390625,1.166778746228263
0.02734375,1.24353702198789
0.029296875,1.317510370772726
0.03125,1.3885358549967117
0.033203125,1.456457666474761
0.03515625,1.521127498630944
0.037109375,1.582404899746023
0.0390625,1.6401576063615615
0.041015625,1.6942618560096476
0.04296875,1.7446026784912356
0.044921875,1.7910741649820707
0.046875,1.833579714302994
0.048828125,1.872032255750943
0.05078125,1.906354447948028
0.052734375,1.9364788532285149
0.0546875,1.9623480871471977
0.056640625,1.9839149427573501
0.05859375,2.0011424893720124
0.060546875,2.014004145588641
0.0625,2.022483726423935
0.064453125,2.026575464472786
0.06640625,2.0262840050725788
0.068359375,2.0216243755213763
0.0703125,2.0126219284655673
0.072265625,1.9993122596393034
0.07421875,1.9817411002041943
0.076171875,1.9599641840031796
0.078125,1.934047090107029
0.080078125,1.9040650610954064
0.08203125,1.8701027975766646
0.083984375,1.832254229511382
0.0859375,1.7906222649639212
0.087890625,1.745318516963865
0.08984375,1.696463009214865
0.091796875,1.6441838614421294
0.09375,1.588616955221299
0.095703125,1.529905581180693
0.09765625,1.4682000685157315
0.099609375,1.4036573977986202
0.1015625,1.336440798108005
0.103515625,1.2667193295421726
0.10546875,1.1946674522153722
0.107421875,1.1204645828698805
0.109375,1.0442946402664444
0.111328125,0.9663455805426281
0.11328125,0.8868089237523025
0.115234375,0.8058792728199895
0.1171875,0.7237538261609539
0.119140625,0.640631885231779
0.12109375,0.556714358286655
0.123046875,0.4722032616216944
0.125,0.3873012195932951
0.126953125,0.3022109646968512
0.12890625,0.2171348389890048
0.130859375,0.1322742981301266
0.1328125,0.04782941931385129
0.134765625,-0.036001585662710084
0.13671875,-0.11902285095095003
0.138671875,-0.20104132960754173
0.140625,-0.28186725776153976
0.142578125,-0.36131460882337185
0.14453125,-0.4392015365963695
0.146484375,-0.5153508061835298
0.1484375,-0.5895902116171123
0.150390625,-0.6617529791763562
0.15234375,-0.7316781553989491
0.154296875,-0.7992109788347772
0.15625,-0.8642032346358138
0.158203125,-0.9265135911236358
0.16015625,-0.9860079175258651
0.162109375,-1.0425595821246756
0.1640625,-1.0960497301142287
0.166015625,-1.146367540519389
0.16796875,-1.193410461585128
0.169921875,-1.2370844241045273
0.171875,-1.2773040322130682
0.173828125,-1.3139927312377724
0.17578125,-1.3470829522515935
0.177734375,-1.3765162330460552
0.1796875,-1.4022433152983398
0.181640625,-1.4242242177726754
0.18359375,-1.4424282854597636
0.185546875,-1.456834214621983
0.1875,-1.4674300537759983
0.189453125,-1.4742131807080578
0.19140625,-1.4771902556804637
0.193359375,-1.4763771510503272
0.1953125,-1.4717988575835501
0.197265625,-1.4634893678079048
0.19921875,-1.4514915368088834
0.201171875,-1.4358569209305618
0.203125,-1.4166455949008656
0.205078125,-1.3939259479562058
0.20703125,-1.3677744595943415
0.208984375,-1.3382754556363345
0.2109375,-1.3055208453284963
0.212890625,-1.269609840263152
0.21484375,-1.2306486559426895
0.216796875,-1.1887501968546892
0.21875,-1.1440337259667286
0.220703125,-1.0966245195877218
0.22265625,-1.0466535085782014
0.224609375,-0.9942569069247538
0.2265625,-0.9395758287237496
0.228515625,-0.8827558946465437
0.23046875,-0.8239468289823162
0.232421875,-0.7633020483757189
0.234375,-0.7009782433943479
0.236328125,-0.6371349540757947
0.23828125,-0.5719341406155831
0.240234375,-0.5055397503656577
0.2421875,-0.4381172823182303
0.244140625,-0.36983335025172626
0.24609375,-0.30085524571427713
0.248046875,-0.23135050201572846
0.25,-0.16148646039145145
0.251953125,-0.09142983949043174
0.25390625,-0.021346309326170154
0.255859375,0.048599929188071045
0.2578125,0.11824655801815964
0.259765625,0.18743354802357043
0.26171875,0.2560035561547339
0.263671875,0.3238023128091872
0.265625,0.39067899835381137
0.267578125,0.45648660785440454
0.26953125,0.5210823030903371
0.271484375,0.5843277509709264
0.2734375,0.646089447511369
0.275390625,0.7062390265694303
0.27734375,0.7646535525895183
0.279296875,0.8212157966480986
0.28125,0.8758144951435303
0.283203125,0.9283445905241579
0.28515625,0.978707453500751
0.287109375,1.0268110862429833
0.2890625,1.072570306114432
0.291015625,1.1159069095564145
0.29296875,1.1567498157876865
0.294921875,1.1950351900444596
0.296875,1.230706546143176
0.298828125,1.2637148282068738
0.30078125,1.2940184714545695
0.302734375,1.321583442011788
0.3046875,1.3463832557589277
0.306640625,1.3683989762924882
0.30859375,1.3876191921320755
0.310546875,1.4040399733634206
0.3125,1.4176648079642138
0.314453125,1.4285045181152383
0.31640625,1.436577156853901
0.318359375,1.4419078854806835
0.3203125,1.4445288321811072
0.322265625,1.4444789323763778
0.32421875,1.4418037513648443
0.326171875,1.4365552898635774
0.328125,1.4287917731046849
0.330078125,1.418577424184265
0.33203125,1.4059822224030631
0.333984375,1.3910816473768133
0.3359375,1.3739564097308365
0.337890625,1.3546921692275973
0.33984375,1.3333792412075531
0.341796875,1.3101122922526163
0.34375,1.2849900260078833
0.345703125,1.2581148601208496
0.34765625,1.2295925952780815
0.349609375,1.1995320773372173
0.3515625,1.1680448535671568
0.353515625,1.1352448240213484
0.35546875,1.1012478890781705
0.357421875,1.0661715941884986
0.359375,1.030134772873666
0.361328125,0.9932571890171294
0.36328125,0.9556591794902906
0.365234375,0.917461298147072
0.3671875,0.878783962213066
0.369140625,0.8397471020833708
0.37109375,0.8004698155286587
0.373046875,0.761070027291626
0.375,0.7216641550358138
0.376953125,0.6823667825859311
0.37890625,0.6432903413733184
0.380859375,0.6045448009721575
0.3828125,0.566237369581525
0.384765625,0.5284722052755304
0.38671875,0.4913501388086303
0.388671875,0.4549684087259188
0.390625,0.41942040948884723
0.392578125,0.3847954532855381
0.39453125,0.3511785461517808
0.396484375,0.3186501789840202
0.3984375,0.28728613397933905
0.400390625,0.25715730698970984
0.40234375,0.2283295462287952
0.404296875,0.20086350771945977
0.40625,0.17481452781905832
0.408203125,0.15023251310764046
0.41015625,0.12716184787160972
0.412109375,0.10564131936225318
0.4140625,0.08570406095506544
0.416015625,0.06737751328208319
0.41796875,0.05068340335569138
0.419921875,0.03563774164869876
0.421875,0.022250837042069205
0.423828125,0.010527329498707383
0.42578125,0.0004662402692514056
0.427734375,-0.00793896061588839
0.4296875,-0.014700269864871884
0.431640625,-0.01983504979963019
0.43359375,-0.023365910983104587
0.435546875,-0.025320579041113178
0.4375,-0.025731746167421188
0.439453125,-0.024636907845016598
0.44140625,-0.022078185359338476
0.443359375,-0.018102134720142216
0.4453125,-0.012759542647700906
0.447265625,-0.006105210316028509
0.44921875,0.0018022744193444962
0.451171875,0.010900775548900343
0.453125,0.021124857401539243
0.455078125,0.03240604228356159
0.45703125,0.04467307642053836
0.458984375,0.05785220333556468
0.4609375,0.07186744377718379
0.462890625,0.08664088129274955
0.46484375,0.10209295252819828
0.466796875,0.11814274132316877
0.46875,0.134708275661175
0.470703125,0.15170682652812406
0.47265625,0.16905520772889154
0.474609375,0.18667007571093325
0.4765625,0.20446822844601897
0.478515625,0.22236690242611118
0.48046875,0.24028406683716697
0.482421875,0.25813871398518273
0.484375,0.2758511450620987
0.486328125,0.2933432503551899
0.48828125,0.31053878302224575
0.490234375,0.32736362557611975
0.4921875,0.3437460482460501
0.494140625,0.359616958409447
0.49609375,0.37491014031651704
0.498046875,0.3895624843610834
0.5,0.40351420518415393
0.501953125,0.41670904793209035
0.50390625,0.42909448202855405
0.505859375,0.4406218818585976
0.5078125,0.451246693804269
0.509765625,0.4609285891137295
0.51171875,0.46963160213006117
0.513671875,0.47732425345151436
0.515625,0.4839796576417777
0.517578125,0.4895756151568181
0.51953125,0.49409468820378655
0.521484375,0.4975242602972671
0.5234375,0.49985657932863226
0.525390625,0.5010887840152838
0.52734375,0.501222913647979
0.529296875,0.5002659011060973
0.53125,0.49822954916244777
0.533203125,0.4951304901509017
0.53515625,0.49099012912159956
0.537109375,0.4858345706595798
0.5390625,0.479694529593257
0.541015625,0.4726052258690867
0.54296875,0.4646062639178511
0.544921875,0.45574149688613197
0.546875,0.4460588761535743
0.548828125,0.43561028660232926
0.55078125,0.4244513681494797
0.552734375,0.4126413240961576
0.5546875,0.40024271688832536
0.556640625,0.38732125192370637
0.55859375,0.37394555007698127
0.560546875,0.36018690965100897
0.5625,0.3461190584953855
0.564453125,0.3318178970650056
0.56640625,0.31736123322036064
0.568359375,0.3028285095979971
0.5703125,0.2883005244037922
0.572265625,0.273859146503411
0.57421875,0.259587025703414
0.576171875,0.24556729913294256
0.578125,0.23188329464965174
0.580078125,0.21861823220456694
0.58203125,0.20585492410875184
0.583984375,0.1936754751500807
0.5859375,0.18216098351098708
0.587890625,0.17139124343779005
0.58984375,0.16144445060909535
0.591796875,0.15239691114481968
0.59375,0.1443227551886177
0.595703125,0.1372936559849196
0.59765625,0.13137855535744514
0.599609375,0.12664339647898343
0.6015625,0.12315086480246634
0.603515625,0.1209601380009685
0.60546875,0.12012664573929949
0.607421875,0.12070184007238982
0.609375,0.12273297723577536
0.611328125,0.12626291156125602
0.61328125,0.13132990221631669
0.615234375,0.1379674334292607
0.6171875,0.14620404882332172
0.619140625,0.15606320044238592
0.62109375,0.16756311300850618
0.623046875,0.18071666390723357
0.625,0.1955312793510492
0.626953125,0.21200884712399948
0.62890625,0.23014564626214096
0.630859375,0.24993229397472128
0.6328125,0.27135371006032794
0.634765625,0.29438909902064125
0.63671875,0.3190119500220989
0.638671875,0.34519005480286924
0.640625,0.37288554356917436
0.642578125,0.40205493887138055
0.64453125,0.43264922739651324
0.646484375,0.46461394956013413
0.6484375,0.4978893067269764
0.650390625,0.5324102858365417
0.65234375,0.5681068011571617
0.654296875,0.6049038528399828
0.65625,0.6427217018930876
0.658203125,0.6814760611456728
0.66015625,0.72107830172302
0.662109375,0.7614356745050455
0.6640625,0.8024515459946593
0.666015625,0.8440256479771361
0.66796875,0.8860543403083164
0.669921875,0.9284308861278815
0.671875,0.9710457387542574
0.673828125,1.0137868394800695
0.67578125,1.0565399254515602
0.677734375,1.0991888467821345
0.6796875,1.141615892019302
0.681640625,1.1837021210558294
0.68359375,1.2253277045500062
0.685546875,1.266372268896625
0.6875,1.3067152457696634
0.689453125,1.3462362252398075
0.69140625,1.3848153114549073
0.693359375,1.4223334798592835
0.6953125,1.4586729349185283
0.697265625,1.4937174673101183
0.69921875,1.5273528095367919
0.701171875,1.5594669889192594
0.703125,1.5899506769274332
0.705078125,1.6186975338149725
0.70703125,1.645604547530521
0.708984375,1.6705723658905913
0.7109375,1.6935056210135446
0.712890625,1.7143132450315384
0.71484375,1.7329087761176032
0.716796875,1.7492106538881105
0.71875,1.763142503266776
0.720703125,1.7746334059248927
0.72265625,1.7836181584436954
0.724609375,1.7900375163784763
0.7265625,1.79383842344026
0.728515625,1.794974225049394
0.73046875,1.7934048655562023
0.732421875,1.789097068466797
0.734375,1.7820244990571221
0.736328125,1.772167908805184
0.73828125,1.759515261120098
0.740234375,1.7440618378968993
0.7421875,1.7258103264779003
0.744140625,1.7047708866545834
0.74609375,1.6809611973984526
0.748046875,1.65440648306478
0.75,1.625139518869613
0.751953125,1.5932006154976162
0.75390625,1.5586375827561287
0.755859375,1.5215056722490912
0.7578125,1.4818674991030294
0.759765625,1.4397929428359761
0.76171875,1.3953590275188335
0.763671875,1.3486497814371095
0.765625,1.2997560765190421
0.767578125,1.2487754478536348
0.76953125,1.1958118936789852
0.771484375,1.1409756562772733
0.7734375,1.084382984267739
0.775390625,1.0261558768428043
0.77734375,0.9664218105449677
0.779296875,0.9053134492331198
0.78125,0.8429683379363313
0.783203125,0.7795285813407966
0.78515625,0.7151405077013699
0.787109375,0.6499543190128435
0.7890625,0.5841237283176755
0.791015625,0.5178055850661697
0.79296875,0.451159489481995
0.794921875,0.38434739692033104
0.796875,0.31753321323771716
0.798828125,0.25088238222177733
0.80078125,0.184561466155303
0.802734375,0.11873772061261845
0.8046875,0.05357866460666605
0.806640625,-0.01074835277725561
0.80859375,-0.0740765881107146
0.810546875,-0.13624034055260725
0.8125,-0.19707538881094533
0.814453125,-0.25641942696103504
0.81640625,-0.31411249794330476
0.818359375,-0.3699974235654282
0.8203125,-0.42392022983801025
0.822265625,-0.4757305664809258
0.82421875,-0.5252821194484313
0.826171875,-0.5724330153353756
0.828125,-0.6170462165441885
0.830078125,-0.6589899061127886
0.83203125,-0.698137861127071
0.833984375,-0.7343698136681629
0.8359375,-0.7675717982740935
0.837890625,-0.7976364849278624
0.83984375,-0.8244634966189868
0.841796875,-0.847959710563434
0.84375,-0.8680395422072328
0.845703125,-0.8846252111819716
0.84765625,-0.8976469884256669
0.849609375,-0.9070434237300345
0.8515625,-0.9127615530248934
0.853515625,-0.9147570847621309
0.85546875,-0.9129945648152322
0.857421875,-0.907447519365701
0.859375,-0.8980985753045869
0.861328125,-0.8849395577356833
0.86328125,-0.8679715642265702
0.865234375,-0.8472050155144274
0.8671875,-0.822659682435239
0.869140625,-0.7943646889075142
0.87109375,-0.762358490864774
0.873046875,-0.726688831094634
0.875,-0.687412670006192
0.876953125,-0.644596092411404
0.87890625,-0.598314190470069
0.880859375,-0.5486509230117289
0.8828125,-0.4956989515110892
0.884765625,-0.43955945305626887
0.88671875,-0.3803419107111654
0.888671875,-0.3181638817342689
0.890625,-0.25315074417621997
0.892578125,-0.18543542243713973
0.89453125,-0.11515809242206632
0.896484375,-0.04246586698857868
0.8984375,0.032487537565268676
0.900390625,0.10954215317242932
0.90234375,0.18853212897733296
0.904296875,0.2692861167269053
0.90625,0.3516276716279933
0.908203125,0.43537566768373576
0.91015625,0.5203447264806497
0.912109375,0.6063456583600688
0.9140625,0.6931859148721984
0.916015625,0.780670051378523
0.91796875,0.8686001986387316
0.919921875,0.956776542191772
0.921875,1.0449978083172065
0.923828125,1.133061755342779
0.92578125,1.2207656690470652
0.927734375,1.3079068608923312
0.9296875,1.3942831678123146
0.931640625,1.4796934522725729
0.93359375,1.5639381013173757
0.935546875,1.6468195233168452
0.9375,1.728142641131178
0.939453125,1.80771538041532
0.94140625,1.8853491517973877
0.943359375,1.9608593256774305
0.9453125,2.034065698409754
0.947265625,2.104792948651962
0.94921875,2.1728710826870503
0.951171875,2.238135867551263
0.953125,2.300429250829921
0.955078125,2.3595997660159833
0.95703125,2.41550292236162
0.958984375,2.4680015781914744
0.9609375,2.5169662966874764
0.962890625,2.5622756831989015
0.96484375,2.603816703177797
0.966796875,2.641484979888729
0.96875,2.6751850710929674
0.970703125,2.704830723960562
0.97265625,2.7303451075191254
0.974609375,2.7516610220054143
0.9765625,2.7687210845447967
0.978515625,2.781477890644286
0.98046875,2.7898941510468465
0.982421875,2.793942803557952
0.984375,2.7936070995197566
0.986328125,2.7888806646735382
0.98828125,2.7797675342171373
0.990234375,2.7662821619307465
0.9921875,2.748449403311432
0.994140625,2.7263044727240353
0.99609375,2.699892874643409
0.998046875,2.6692703091300993
1.0,2.6345025517484553
1.001953125,2.5956653082025003
1.00390625,2.552844044030607
1.005859375,2.5061337897648794
1.0078125,2.4556389220249657
1.009765625,2.401472921078714
1.01171875,2.343758105463358
1.013671875,2.282625344320734
1.015625,2.218213748158126
1.017578125,2.150670338802629
1.01953125,2.0801496993712316
1.021484375,2.0068136051309806
1.0234375,1.9308306361735186
1.025390625,1.8523757728757948
1.02734375,1.7716299751637403
1.029296875,1.6887797466380488
1.03125,1.6040166846607795
1.033203125,1.5175370175382374
1.03515625,1.4295411299693264
1.037109375,1.3402330779592948
1.0390625,1.2498200944263511
1.041015625,1.1585120867529988
1.04296875,1.06652112755502
1.044921875,0.9740609399588026
1.046875,0.8813463786920819
1.048828125,0.7885929083041274
1.05078125,0.6960160798389324
1.052734375,0.6038310072890039
1.0546875,0.5122518451579343
1.056640625,0.42149126845702856
1.05859375,0.33175995645488354
1.060546875,0.2432660814889953
1.0625,0.15621480413520805
1.064453125,0.07080777601417554
1.06640625,-0.01275734850598964
1.068359375,-0.09428739047499024
1.0703125,-0.1735941131841745
1.072265625,-0.2504946764692336
1.07421875,-0.32481207734483386
1.076171875,-0.39637557586001515
1.078125,-0.4650211051018269
1.080078125,-0.5305916643161304
1.08203125,-0.5929376941586153
1.083984375,-0.6519174331357825
1.0859375,-0.7073972543447761
1.087890625,-0.7592519816723953
1.08984375,-0.8073651846672367
1.091796875,-0.8516294513545567
1.09375,-0.8919466383209802
1.095703125,-0.9282280974554307
1.09765625,-0.9603948787934788
1.099609375,-0.988377908974536
1.1015625,-1.0121181448847922
1.103515625,-1.0315667021233303
1.10546875,-1.0466849579942994
1.107421875,-1.0574446287941828
1.109375,-1.0638278212299257
1.111328125,-1.0658270578707536
1.11328125,-1.0634452766038087
1.115234375,-1.0566958041310175
1.1171875,-1.0456023036117257
1.119140625,-1.0301986966224352
1.12109375,-1.01052905967123
1.123046875,-0.9866474955700631
1.125,-0.9586179800327634
1.126953125,-0.9265141839303008
1.12890625,-0.8904192716972822
1.130859375,-0.8504256764447543
1.1328125,-0.8066348523939129
1.134765625,-0.7591570053031921
1.13671875,-0.7081108016172105
1.138671875,-0.6536230571200766
1.140625,-0.5958284059274463
1.142578125,-0.5348689507013534
1.14453125,-0.47089389501905077
1.146484375,-0.40405915887181987
1.1484375,-0.3345269783117715
1.150390625,-0.2624654903039839
1.15234375,-0.18804830387781535
1.154296875,-0.11145405870476044
1.15625,-0.032865972260740395
1.158203125,0.047528623241867796
1.16015625,0.12953875294292105
1.162109375,0.2129702792133591
1.1640625,0.2976263880759332
1.166015625,0.38330808090512736
1.16796875,0.4698146701325493
1.169921875,0.5569442776764061
1.171875,0.6444943348094275
1.173828125,0.7322620821787446
1.17578125,0.820045068693783
1.177734375,0.9076416480041791
1.1796875,0.9948514712990297
1.181640625,1.0814759751714482
1.18359375,1.167318863308344
1.185546875,1.252186580784553
1.1875,1.335888779762843
1.189453125,1.4182387754268442
1.19140625,1.4990539910025522
1.193359375,1.5781563907555949
1.1953125,1.6553728998859134
1.197265625,1.7305358102787325
1.19921875,1.8034831711106045
1.201171875,1.8740591633518102
1.203125,1.9421144572513152
